# mN [MeV]	|U_muN|^2 (15MeV)	|U_muN|^2 (10MeV)	|U_eN|^2 (15MeV)	|U_eN|^2 (10MeV)
10	0.00002264796775989021	0.000022649953332855376	0.00001584936592716019	0.00001584999295020182
10.65	0.000019051886112293172	0.000019060141915674654	0.000013285886725289994	0.00001329058939810223
11.3	0.000016231431967194325	0.000016250556169964086	0.000011264364439069974	0.000011279726503589946
11.95	0.000013976239094126296	0.000014010934369096573	9.65295702361308e-6	9.684015564941892e-6
12.6	0.000012148153416249602	0.000012200614344066106	8.34687847827865e-6	8.396852214696682e-6
13.25	0.000010640163001125796	0.000010711330116350974	7.268315243600219e-6	7.336106884784613e-6
13.9	9.378801649043724e-6	9.467661264426936e-6	6.376333165343275e-6	6.464147742323769e-6
14.55	8.320867472434971e-6	8.425632572307569e-6	5.624062271145859e-6	5.728848271786513e-6
15.2	7.417870689413364e-6	7.535782372392171e-6	4.988731174212722e-6	5.106778712183883e-6
15.85	6.645357401355278e-6	6.773217849927972e-6	4.443200227225246e-6	4.572314721881203e-6
16.5	5.9827299013431155e-6	6.117226343773077e-6	3.977374359213163e-6	4.114985016083226e-6
17.15	5.408585802889187e-6	5.546614475120339e-6	3.5754943910634673e-6	3.7191871714373575e-6
17.8	4.917114692474375e-6	5.056940830758204e-6	3.22576183920946e-6	3.3731018036088403e-6
18.45	4.490676321860779e-6	4.630502460144607e-6	2.925125191515201e-6	3.074377576191557e-6
19.1	4.118130581675412e-6	4.256786276948195e-6	2.6628937051208728e-6	2.8125745555423434e-6
19.75	3.7926429207644898e-6	3.9287173711825565e-6	2.4337794857087153e-6	2.5829900688489625e-6
20.4	3.508434276760977e-6	3.642544054981931e-6	2.2321602266721007e-6	2.380409374481846e-6
21.05	3.2551483190939245e-6	3.3861961347949117e-6	2.05225686564399e-6	2.1977680128386117e-6
21.7	3.0322938797140552e-6	3.1607709009443534e-6	1.8942470591528474e-6	2.0389221756252934e-6
22.35	2.8347189192959633e-6	2.960875955272225e-6	1.7532922793940817e-6	1.8958773190610892e-6
23	2.656863833537183e-6	2.780920342323979e-6	1.6267172280567322e-6	1.7672435420703831e-6
23.65	2.5003693327299827e-6	2.622691077768265e-6	1.5140516378595754e-6	1.6529581423490113e-6
24.3	2.35888158338583e-6	2.479708923508224e-6	1.4122857982027799e-6	1.54935303510343e-6
24.95	2.234668318838626e-6	2.354450620558301e-6	1.3195699911135326e-6	1.4541082350796021e-6
25.6	2.1209681406227777e-6	2.2400502666126303e-6	1.2364162854091659e-6	1.3696900329079452e-6
26.25	2.0203622935930002e-6	2.1397370303356142e-6	1.1602225354669092e-6	1.2916779161449572e-6
26.9	1.9296320594689196e-6	2.050072735382307e-6	1.0917098177846386e-6	1.2216916943148523e-6
27.55	1.8495298659004926e-6	1.9721964736116723e-6	1.027888277492174e-6	1.1564812979851744e-6
28.2	1.778331399523234e-6	1.9037882597696736e-6	9.69682773575923e-7	1.0972903228551589e-6
28.85	1.71619341609755e-6	1.84715762872632e-6	9.169553609667258e-7	1.0437070237941347e-6
29.5	1.6617887168519888e-6	1.7999950456116027e-6	8.681228064844631e-7	9.94149212660385e-7
30.15	1.6171342259037974e-6	1.7672644428384374e-6	8.233011093918366e-7	9.489962383940964e-7
30.8	1.5804951795044623e-6	1.748464201973519e-6	7.814828526686253e-7	9.067965426538925e-7
31.45	1.5537212956267964e-6	1.7428836969029985e-6	7.432814738572248e-7	8.688313425215067e-7
32.1	1.539717781030359e-6	1.754170111652366e-6	7.072527298850778e-7	8.332592803313479e-7
32.75	1.5432395604475227e-6	1.7869216151935855e-6	6.744562896925411e-7	8.011222593709271e-7
33.4	1.5745071094568813e-6	1.8536473172072064e-6	6.434959819735822e-7	7.710230632958087e-7
34.05	1.6265604722963245e-6	1.944461154403505e-6	6.149685236561535e-7	7.43801902981779e-7
34.7	1.573681529118733e-6	1.8973612735929504e-6	5.885750337570773e-7	7.186102072458301e-7
35.35	1.5236241896284835e-6	1.8550163175147686e-6	5.633133204481462e-7	6.947927370094568e-7
36	1.4769841257151257e-6	1.8172381792564693e-6	5.405743298433791e-7	6.734530528259306e-7
36.65	1.4339912458272575e-6	1.7823965989098112e-6	5.187978196075165e-7	6.535617918685735e-7
37.3	1.3931197938969098e-6	1.7506692330032565e-6	4.981677164994367e-7	6.34453264674853e-7
37.95	1.3564180451934117e-6	1.7260063266990833e-6	4.793706107497265e-7	6.174985616291366e-7
38.6	1.3224647474890647e-6	1.7043008790746056e-6	4.619320549235512e-7	6.015972572933613e-7
39.25	1.291019541951244e-6	1.6859500047228566e-6	4.4541104281496336e-7	5.8705032272751e-7
39.9	1.2601073059988102e-6	1.6665645423524154e-6	4.2979085380951956e-7	5.73135636395304e-7
40.55	1.2333856740412802e-6	1.6561873110134138e-6	4.151321001345773e-7	5.59562677620787e-7
41.2	1.2091198823301403e-6	1.6463430492597988e-6	4.018496620360163e-7	5.482365514121162e-7
41.85	1.1858886786376927e-6	1.6373975205325225e-6	3.8920887751672486e-7	5.364265724229867e-7
42.5	1.1650401625034447e-6	1.6329352065529116e-6	3.7748981686863175e-7	5.263774831424389e-7
43.15	1.1473894638815174e-6	1.6330919623133193e-6	3.6625878915460855e-7	5.162698717113387e-7
43.8	1.1304180402213575e-6	1.6326007942640415e-6	3.562295556037124e-7	5.073525590209358e-7
44.45	1.1155680445187178e-6	1.6357672606242808e-6	3.46294375509061e-7	4.981029241184681e-7
45.1	1.103445599047175e-6	1.6405953380448432e-6	3.3758502546079916e-7	4.906591155758993e-7
45.75	1.0902676647888858e-6	1.64444107936685e-6	3.292957808504305e-7	4.829874886615377e-7
46.4	1.082429876768492e-6	1.653585165390643e-6	3.213127324920585e-7	4.758268855261057e-7
47.05	1.0735261495773244e-6	1.6595314339021152e-6	3.1382607737497816e-7	4.6982522997928933e-7
47.7	1.0681337514192933e-6	1.6717270320618483e-6	3.071524621352134e-7	4.6442760662924466e-7
48.35	1.062783154797371e-6	1.6798887819870853e-6	3.005039278171138e-7	4.5895160539899605e-7
49	1.0603482153190353e-6	1.6918753724662746e-6	2.941898057878844e-7	4.5447361584334433e-7
49.65	1.0595957876690773e-6	1.703558901808675e-6	2.88724254941663e-7	4.507762699745238e-7
50.3	1.0599406503419748e-6	1.7174997141009493e-6	2.8323257813537366e-7	4.4801632355294233e-7
50.95	1.0615395590981353e-6	1.729141441907241e-6	2.779321433567818e-7	4.4577889633272055e-7
51.6	1.0642044070250693e-6	1.7431658572717326e-6	2.731552728179524e-7	4.447944701573591e-7
52.25	1.0696804082553175e-6	1.7630842892275605e-6	2.686365267645946e-7	4.4511947710060476e-7
52.9	1.0758252340633066e-6	1.7764189792462576e-6	2.642337799739386e-7	4.461174887752016e-7
53.55	1.0858785034974653e-6	1.8022732293295306e-6	2.6025845388999475e-7	4.4845314960527895e-7
54.2	1.0935072838373154e-6	1.818628080332086e-6	2.565004957938165e-7	4.528663467799622e-7
54.85	1.1047727978186284e-6	1.8361324735776327e-6	2.530006621831099e-7	4.570694912356988e-7
55.5	1.1162682202485395e-6	1.8539817294960766e-6	2.4950918887962506e-7	4.628360131419033e-7
56.15	1.1285474214804903e-6	1.87473619217408e-6	2.4666145923221526e-7	4.6983568036331655e-7
56.8	1.143386966799103e-6	1.900705396481652e-6	2.434720020271163e-7	4.762689367704559e-7
57.45	1.1580697563573075e-6	1.9254414554740157e-6	2.408447754826802e-7	4.832497933006201e-7
58.1	1.1709341790947807e-6	1.947627620763744e-6	2.3858226734079315e-7	4.920417013826968e-7
58.75	1.1889192900055784e-6	1.9774216656252683e-6	2.3634484012057135e-7	5.001940459623093e-7
59.4	1.2063505305629346e-6	2.0022413276898492e-6	2.3459858094962754e-7	5.127261464877178e-7
60.05	1.2238758245765355e-6	2.0303946622591044e-6	2.3352428147163221e-7	5.25877954785939e-7
60.7	1.2446720887906478e-6	2.06524669298979e-6	2.320612277078253e-7	5.378969414556126e-7
61.35	1.262009275891759e-6	2.0933582260229364e-6	2.3145406039584548e-7	5.522191927648792e-7
62	1.2851046245918533e-6	2.127342874879365e-6	2.3094512669372122e-7	5.680577947964913e-7
62.65	1.3068832249045216e-6	2.171182235873435e-6	2.3141121382133398e-7	5.832066714823088e-7
63.3	1.3304488408858395e-6	2.208364702242184e-6	2.3220335293059517e-7	6.033978584612465e-7
63.95	1.354317518003946e-6	2.242986824524271e-6	2.335180112412159e-7	6.245431655018668e-7
64.6	1.37767412630472e-6	2.2860215059482477e-6	2.355767368945727e-7	6.436579629260036e-7
65.25	1.4078130338391418e-6	2.332254004884545e-6	2.387661940996717e-7	6.675893423482732e-7
65.9	1.4332701693293813e-6	2.378068488459755e-6	2.418793635013722e-7	6.99971947333333e-7
66.55	1.463994298369326e-6	2.421615238701064e-6	2.4581288804920726e-7	7.297168753899297e-7
67.2	1.4920117779462276e-6	2.4658830654402495e-6	2.5018219361097624e-7	7.583948192373498e-7
67.85	1.5306990996148924e-6	2.5315637290511507e-6	2.54559859479967e-7	7.89987375189954e-7
68.5	1.5610261140618036e-6	2.5780888387402097e-6	2.5959903465787896e-7	8.285952739400121e-7
69.15	1.5991804661450814e-6	2.6412509598005576e-6	2.666467736458172e-7	8.639917696785142e-7
69.8	1.6357150087041447e-6	2.7007345456833346e-6	2.7255960092840246e-7	9.108690573092892e-7
70.45	1.680306797348173e-6	2.783229877193988e-6	2.788977588408944e-7	9.590087513305492e-7
71.1	1.723581837604775e-6	2.8461620898057384e-6	2.8603641616986924e-7	1.015772102251048e-6
71.75	1.7715700010576406e-6	2.926776352191498e-6	2.9324718114863173e-7	1.065667460788876e-6
72.4	1.8189729430049834e-6	3.0061888204141295e-6	3.0155105629663847e-7	1.1269485127243298e-6
73.05	1.8646306708197852e-6	3.0890394649817074e-6	3.1046209875662507e-7	1.1767341422298725e-6
73.7	1.9308861055521824e-6	3.1962290539486157e-6	3.20134974212194e-7	1.248277471280029e-6
74.35	1.982573704950674e-6	3.2680231922154248e-6	3.300440283467774e-7	1.320343319531545e-6
75	2.042234947361913e-6	3.375118727726088e-6	3.416648553850149e-7	1.375333240282629e-6
75.65	2.115157727103659e-6	3.4952876936547687e-6	3.566831022704925e-7	1.444462530622504e-6
76.3	2.1845796281962952e-6	3.612049834390585e-6	3.677469238400807e-7	1.5058480863982298e-6
76.95	2.261651210396836e-6	3.727955043636171e-6	3.844570878995607e-7	1.566272206843454e-6
77.6	2.3360683950544703e-6	3.874375374241158e-6	3.978795611440861e-7	1.6287028010218988e-6
78.25	2.4270389880111764e-6	4.014337367517341e-6	4.1522719862922477e-7	1.6906944790712018e-6
78.9	2.5231302691412068e-6	4.182787107651649e-6	4.3391562038505223e-7	1.7472937589624736e-6
79.55	2.614069510945832e-6	4.3290193313441456e-6	4.5334497436840756e-7	1.8135700944629251e-6
80.2	2.7049774015983746e-6	4.4743632723943324e-6	4.808190339758954e-7	1.8911955470169072e-6
80.85	2.8437166999433754e-6	4.706121438965368e-6	5.080422843667304e-7	1.9559356760653617e-6
81.5	2.9540936560385774e-6	4.886014349609453e-6	5.309171299638509e-7	2.031199341829198e-6
82.15	3.1033982926350693e-6	5.174821162584929e-6	5.629026203558775e-7	2.1272906229592284e-6
82.8	3.2519923031177123e-6	5.425045157732014e-6	5.911113419604768e-7	2.2327036466415145e-6
83.45	3.403888634952948e-6	5.649446253947908e-6	6.268401599110436e-7	2.3414189916763923e-6
84.1	3.571554596285216e-6	5.971871952338863e-6	6.666049161729119e-7	2.4429862740366716e-6
84.75	3.758804577284442e-6	6.295175482988101e-6	7.196312097652866e-7	2.5729158986467493e-6
85.4	3.969014051991409e-6	6.649955570327242e-6	7.707753891943643e-7	2.7183016412330444e-6
86.05	4.202590585383178e-6	7.0559007378635155e-6	8.275209744620167e-7	2.8767503638533295e-6
86.7	4.4627946972762306e-6	7.47263070171585e-6	9.135474907354585e-7	3.0427129125891656e-6
87.35	4.7710183237742315e-6	7.962419300302284e-6	9.815533647924104e-7	3.2505919516580688e-6
88	5.066241672542405e-6	8.513478500440146e-6	1.0976038343759747e-6	3.4763515977974967e-6
88.65	5.41553530826727e-6	9.174726549760719e-6	1.17410064545502e-6	3.6755463677398036e-6
89.3	5.80854290037788e-6	9.799419155754173e-6	1.3430311032545787e-6	3.9934261490789295e-6
89.95	6.207768470984668e-6	0.000010547572598644876	1.500852802833232e-6	4.291314345774037e-6
90.6	6.753100860675627e-6	0.000011431361575824502	1.6420688421926775e-6	4.673620744640802e-6
91.25	7.3096360620437366e-6	0.000012488940439376331	1.8619344717407696e-6	5.043564339203398e-6
91.9	7.973214547002373e-6	0.000013668579788365764	2.1198603999158953e-6	5.502524304909616e-6
92.55	8.675543055933839e-6	0.00001491813220649711	2.6351374851446507e-6	6.073710944683849e-6
93.2	9.597246026364118e-6	0.000016591134185410275	2.9428176916732374e-6	6.70069218477926e-6
93.85	0.00001061476856793972	0.000018498642781893628	3.5239948985774655e-6	7.464374898334368e-6
94.5	0.000011826595099732903	0.000020850188195692373	4.206290021328804e-6	8.321891610069633e-6
95.15	0.000013201761133871097	0.000023322226537324636	5.190684845538207e-6	9.529266278267234e-6
95.8	0.000014972369699598236	0.00002664618018485359	6.059864185847819e-6	0.000010785945858305125
96.45	0.000017107905675554918	0.000030604054127472016	7.151051484431098e-6	0.00001260525321359898
97.1	0.00001974777718466389	0.00003582255789529061	8.23180929975524e-6	0.00001449572768411801
97.75	0.00002309587121929566	0.00004202277073862362	9.628670331133883e-6	0.000017231115703235514
98.4	0.000027323365069815635	0.000050041663914208844	0.000011383498816979964	0.000020634492269371126
99.05	0.0000328583064659776	0.00006056593215647308	0.00001375981164092315	0.0000249673259908852
99.7	0.00004017409780421335	0.00007452064345950337	0.000016769626744594714	0.0000307183813287295
100.35	0.000050474936835976225	0.00009382762344590029	0.000021182510407757077	0.00003866474883916601
101	0.00006536464399791937	0.0001228745703533207	0.000027373944928507243	0.00005082283012024144
101.65	0.00008821639424633982	0.00016565426240703382	0.000036998644113710794	0.00006904506024461584
102.3	0.00012483610743522464	0.00023684750359227928	0.00005259218463988532	0.00009901132743490833
102.95	0.00019186696066243953	0.0003657132791083891	0.00008051038556852872	0.00015205831278765708
103.6	0.0003307880956895135	0.0006302051835677993	0.00013968714817626717	0.00026605528190987816
104.25	0.0007040988039856712	0.0013506389828263745	0.00029831352732501436	0.0005707341381458553
104.9	0.002448942992932171	0.004752573395966237	0.0010194495923902167	0.001978226345195362
105.55	0.11911138706512886	0.2303902113018773	0.05025579228292601	0.09659519864782155