# mN [MeV]	|U_muN|^2 (3)	|U_muN|^2 (50)	|U_eN|^2 (3)	|U_eN|^2 (50)
10	4.46824e-06	1.82415e-05	2.79335e-06	1.14038e-05
10.26	4.13796e-06	1.68932e-05	2.5894e-06	1.05712e-05
10.52	3.83949e-06	1.56747e-05	2.40502e-06	9.81844e-06
10.78	3.56908e-06	1.45707e-05	2.23791e-06	9.13623e-06
11.04	3.32351e-06	1.35682e-05	2.0861e-06	8.51645e-06
11.3	3.09999e-06	1.26556e-05	1.94786e-06	7.95209e-06
11.56	2.89609e-06	1.18232e-05	1.8217e-06	7.43708e-06
11.82	2.70971e-06	1.10623e-05	1.70634e-06	6.96611e-06
12.08	2.539e-06	1.03654e-05	1.60064e-06	6.53458e-06
12.34	2.38235e-06	9.72591e-06	1.5036e-06	6.13841e-06
12.6	2.23834e-06	9.13799e-06	1.41435e-06	5.77405e-06
12.86	2.10572e-06	8.59656e-06	1.33212e-06	5.43835e-06
13.12	1.98338e-06	8.09711e-06	1.25623e-06	5.12854e-06
13.38	1.87034e-06	7.63565e-06	1.18608e-06	4.84216e-06
13.64	1.76575e-06	7.20862e-06	1.12114e-06	4.57703e-06
13.9	1.66881e-06	6.81288e-06	1.06092e-06	4.3312e-06
14.16	1.57884e-06	6.44559e-06	1.00501e-06	4.10294e-06
14.42	1.49523e-06	6.10426e-06	9.53023e-07	3.8907e-06
14.68	1.41742e-06	5.78661e-06	9.0462e-07	3.69309e-06
14.94	1.34492e-06	5.49063e-06	8.59495e-07	3.50887e-06
15.2	1.27729e-06	5.2145e-06	8.17375e-07	3.33692e-06
15.46	1.21411e-06	4.95659e-06	7.78011e-07	3.17622e-06
15.72	1.15503e-06	4.7154e-06	7.41182e-07	3.02586e-06
15.98	1.09973e-06	4.48961e-06	7.06684e-07	2.88503e-06
16.24	1.04789e-06	4.278e-06	6.74335e-07	2.75296e-06
16.5	9.99263e-07	4.07948e-06	6.4397e-07	2.629e-06
16.76	9.53596e-07	3.89304e-06	6.15437e-07	2.51251e-06
17.02	9.10666e-07	3.71778e-06	5.88599e-07	2.40294e-06
17.28	8.70273e-07	3.55288e-06	5.63332e-07	2.29979e-06
17.54	8.32231e-07	3.39757e-06	5.3952e-07	2.20258e-06
17.8	7.9637e-07	3.25117e-06	5.17062e-07	2.11089e-06
18.06	7.62537e-07	3.11305e-06	4.95859e-07	2.02434e-06
18.32	7.3059e-07	2.98262e-06	4.75826e-07	1.94255e-06
18.58	7.004e-07	2.85937e-06	4.56882e-07	1.86521e-06
18.84	6.71845e-07	2.7428e-06	4.38954e-07	1.79202e-06
19.1	6.44818e-07	2.63246e-06	4.21973e-07	1.7227e-06
19.36	6.19218e-07	2.52795e-06	4.05878e-07	1.65699e-06
19.62	5.9495e-07	2.42887e-06	3.9061e-07	1.59466e-06
19.88	5.71929e-07	2.33489e-06	3.76118e-07	1.53549e-06
20.14	5.50077e-07	2.24568e-06	3.62351e-07	1.47929e-06
20.4	5.29319e-07	2.16094e-06	3.49264e-07	1.42586e-06
20.66	5.09588e-07	2.08039e-06	3.36816e-07	1.37504e-06
20.92	4.90821e-07	2.00377e-06	3.24967e-07	1.32667e-06
21.18	4.7296e-07	1.93085e-06	3.13682e-07	1.2806e-06
21.44	4.5595e-07	1.86141e-06	3.02926e-07	1.23669e-06
21.7	4.39741e-07	1.79524e-06	2.9267e-07	1.19482e-06
21.96	4.24287e-07	1.73215e-06	2.82883e-07	1.15487e-06
22.22	4.09544e-07	1.67196e-06	2.7354e-07	1.11672e-06
22.48	3.95472e-07	1.61451e-06	2.64614e-07	1.08028e-06
22.74	3.82032e-07	1.55964e-06	2.56083e-07	1.04545e-06
23	3.69189e-07	1.50721e-06	2.47924e-07	1.01215e-06
23.26	3.56912e-07	1.45709e-06	2.40118e-07	9.80276e-07
23.52	3.45168e-07	1.40914e-06	2.32644e-07	9.49766e-07
23.78	3.33929e-07	1.36326e-06	2.25486e-07	9.20543e-07
24.04	3.23168e-07	1.31933e-06	2.18627e-07	8.92539e-07
24.3	3.1286e-07	1.27724e-06	2.1205e-07	8.6569e-07
24.56	3.02981e-07	1.23691e-06	2.05742e-07	8.39936e-07
24.82	2.93509e-07	1.19825e-06	1.99688e-07	8.15221e-07
25.08	2.84423e-07	1.16115e-06	1.93875e-07	7.91493e-07
25.34	2.75705e-07	1.12556e-06	1.88292e-07	7.687e-07
25.6	2.67334e-07	1.09139e-06	1.82927e-07	7.46798e-07
25.86	2.59295e-07	1.05857e-06	1.7777e-07	7.25742e-07
26.12	2.51571e-07	1.02703e-06	1.72809e-07	7.05491e-07
26.38	2.44146e-07	9.96721e-07	1.68037e-07	6.86007e-07
26.64	2.37006e-07	9.67573e-07	1.63443e-07	6.67251e-07
26.9	2.30138e-07	9.39533e-07	1.59019e-07	6.49191e-07
27.16	2.23528e-07	9.1255e-07	1.54757e-07	6.31794e-07
27.42	2.17165e-07	8.86574e-07	1.5065e-07	6.15028e-07
27.68	2.11038e-07	8.61559e-07	1.46691e-07	5.98865e-07
27.94	2.05135e-07	8.37459e-07	1.42873e-07	5.83277e-07
28.2	1.99446e-07	8.14234e-07	1.39189e-07	5.68238e-07
28.46	1.93961e-07	7.91844e-07	1.35634e-07	5.53725e-07
28.72	1.88673e-07	7.70253e-07	1.32202e-07	5.39713e-07
28.98	1.83571e-07	7.49423e-07	1.28887e-07	5.2618e-07
29.24	1.78647e-07	7.29324e-07	1.25685e-07	5.13106e-07
29.5	1.73894e-07	7.09921e-07	1.2259e-07	5.00472e-07
29.76	1.69305e-07	6.91186e-07	1.19598e-07	4.88257e-07
30.02	1.64873e-07	6.73091e-07	1.16705e-07	4.76445e-07
30.28	1.6059e-07	6.55607e-07	1.13906e-07	4.65019e-07
30.54	1.56451e-07	6.38709e-07	1.11198e-07	4.53962e-07
30.8	1.5245e-07	6.22373e-07	1.08576e-07	4.4326e-07
31.06	1.4858e-07	6.06577e-07	1.06038e-07	4.32897e-07
31.32	1.44837e-07	5.91296e-07	1.03579e-07	4.22861e-07
31.58	1.41216e-07	5.76512e-07	1.01198e-07	4.13137e-07
31.84	1.37711e-07	5.62203e-07	9.88894e-08	4.03714e-07
32.1	1.34318e-07	5.48352e-07	9.6652e-08	3.9458e-07
32.36	1.31033e-07	5.34939e-07	9.44825e-08	3.85723e-07
32.62	1.2785e-07	5.21947e-07	9.23783e-08	3.77133e-07
32.88	1.24767e-07	5.09361e-07	9.03369e-08	3.68799e-07
33.14	1.2178e-07	4.97164e-07	8.83559e-08	3.60712e-07
33.4	1.18884e-07	4.85341e-07	8.6433e-08	3.52861e-07
33.66	1.16076e-07	4.73879e-07	8.4566e-08	3.45239e-07
33.92	2.26814e-07	9.25964e-07	8.27529e-08	3.37837e-07
34.18	2.2276e-07	9.09415e-07	8.09916e-08	3.30647e-07
34.44	2.18825e-07	8.93348e-07	7.92802e-08	3.2366e-07
34.7	2.15003e-07	8.77746e-07	7.76169e-08	3.1687e-07
34.96	2.11291e-07	8.62593e-07	7.6e-08	3.10269e-07
35.22	2.07685e-07	8.47872e-07	7.44279e-08	3.03851e-07
35.48	2.04182e-07	8.33569e-07	7.28989e-08	2.97608e-07
35.74	2.00777e-07	8.19668e-07	7.14114e-08	2.91536e-07
36	1.97467e-07	8.06156e-07	6.99642e-08	2.85628e-07
36.26	1.94249e-07	7.9302e-07	6.85557e-08	2.79877e-07
36.52	1.91121e-07	7.80246e-07	6.71846e-08	2.7428e-07
36.78	1.88078e-07	7.67823e-07	6.58496e-08	2.6883e-07
37.04	1.85118e-07	7.55739e-07	6.45496e-08	2.63522e-07
37.3	1.82238e-07	7.43982e-07	6.32832e-08	2.58353e-07
37.56	1.79436e-07	7.32543e-07	6.20495e-08	2.53316e-07
37.82	1.76708e-07	7.21409e-07	6.08474e-08	2.48408e-07
38.08	1.74054e-07	7.10572e-07	5.96757e-08	2.43625e-07
38.34	1.7147e-07	7.00022e-07	5.85334e-08	2.38962e-07
38.6	1.68953e-07	6.89749e-07	5.74198e-08	2.34415e-07
38.86	1.66503e-07	6.79746e-07	5.63337e-08	2.29981e-07
39.12	1.64116e-07	6.70003e-07	5.52744e-08	2.25657e-07
39.38	1.61792e-07	6.60512e-07	5.42409e-08	2.21438e-07
39.64	1.59527e-07	6.51266e-07	5.32325e-08	2.17321e-07
39.9	1.5732e-07	6.42257e-07	5.22484e-08	2.13303e-07
40.16	1.5517e-07	6.33478e-07	5.12878e-08	2.09382e-07
40.42	1.53074e-07	6.24922e-07	5.035e-08	2.05553e-07
40.68	1.51031e-07	6.16581e-07	4.94343e-08	2.01815e-07
40.94	1.49039e-07	6.08451e-07	4.854e-08	1.98164e-07
41.2	1.47098e-07	6.00524e-07	4.76666e-08	1.94598e-07
41.46	1.45205e-07	5.92795e-07	4.68133e-08	1.91114e-07
41.72	1.43358e-07	5.85258e-07	4.59795e-08	1.87711e-07
41.98	1.41558e-07	5.77907e-07	4.51647e-08	1.84384e-07
42.24	1.39802e-07	5.70737e-07	4.43684e-08	1.81133e-07
42.5	1.38088e-07	5.63744e-07	4.35899e-08	1.77955e-07
42.76	1.36417e-07	5.56921e-07	4.28289e-08	1.74848e-07
43.02	1.34787e-07	5.50264e-07	4.20847e-08	1.7181e-07
43.28	1.33196e-07	5.43769e-07	4.13569e-08	1.68839e-07
43.54	1.31643e-07	5.37431e-07	4.0645e-08	1.65932e-07
43.8	1.30128e-07	5.31245e-07	3.99486e-08	1.63089e-07
44.06	1.28649e-07	5.25209e-07	3.92673e-08	1.60308e-07
44.32	1.27206e-07	5.19318e-07	3.86006e-08	1.57586e-07
44.58	1.25798e-07	5.13567e-07	3.79481e-08	1.54922e-07
44.84	1.24423e-07	5.07953e-07	3.73095e-08	1.52315e-07
45.1	1.2308e-07	5.02474e-07	3.66843e-08	1.49763e-07
45.36	1.2177e-07	4.97124e-07	3.60723e-08	1.47264e-07
45.62	1.20491e-07	4.91902e-07	3.5473e-08	1.44818e-07
45.88	1.19242e-07	4.86803e-07	3.48861e-08	1.42422e-07
46.14	1.18022e-07	4.81824e-07	3.43113e-08	1.40075e-07
46.4	1.16832e-07	4.76963e-07	3.37483e-08	1.37777e-07
46.66	1.15669e-07	4.72217e-07	3.31968e-08	1.35525e-07
46.92	1.14534e-07	4.67582e-07	3.26564e-08	1.33319e-07
47.18	1.13425e-07	4.63057e-07	3.2127e-08	1.31158e-07
47.44	1.12343e-07	4.58638e-07	3.16081e-08	1.29039e-07
47.7	1.11286e-07	4.54324e-07	3.10996e-08	1.26963e-07
47.96	1.10254e-07	4.5011e-07	3.06011e-08	1.24928e-07
48.22	1.09246e-07	4.45996e-07	3.01125e-08	1.22934e-07
48.48	1.08262e-07	4.41979e-07	2.96335e-08	1.20978e-07
48.74	1.07301e-07	4.38056e-07	2.91638e-08	1.19061e-07
49	1.06363e-07	4.34226e-07	2.87032e-08	1.1718e-07
49.26	1.05447e-07	4.30487e-07	2.82515e-08	1.15336e-07
49.52	1.04553e-07	4.26836e-07	2.78086e-08	1.13528e-07
49.78	1.0368e-07	4.23271e-07	2.73741e-08	1.11754e-07
50.04	1.02828e-07	4.19792e-07	2.69479e-08	1.10014e-07
50.3	1.01995e-07	4.16395e-07	2.65297e-08	1.08307e-07
50.56	1.01183e-07	4.13079e-07	2.61195e-08	1.06632e-07
50.82	1.00391e-07	4.09843e-07	2.57169e-08	1.04989e-07
51.08	9.96169e-08	4.06684e-07	2.53219e-08	1.03376e-07
51.34	9.88619e-08	4.03602e-07	2.49342e-08	1.01794e-07
51.6	9.81253e-08	4.00595e-07	2.45538e-08	1.0024e-07
51.86	9.74065e-08	3.97661e-07	2.41803e-08	9.87157e-08
52.12	9.67054e-08	3.94798e-07	2.38137e-08	9.72191e-08
52.38	9.60216e-08	3.92006e-07	2.34538e-08	9.57499e-08
52.64	9.53546e-08	3.89284e-07	2.31005e-08	9.43075e-08
52.9	9.47043e-08	3.86629e-07	2.27536e-08	9.28912e-08
53.16	9.40704e-08	3.84041e-07	2.2413e-08	9.15006e-08
53.42	9.34524e-08	3.81518e-07	2.20785e-08	9.0135e-08
53.68	9.28502e-08	3.79059e-07	2.175e-08	8.8794e-08
53.94	9.22634e-08	3.76664e-07	2.14274e-08	8.74769e-08
54.2	9.16919e-08	3.74331e-07	2.11105e-08	8.61832e-08
54.46	9.11353e-08	3.72058e-07	2.07992e-08	8.49125e-08
54.72	9.05934e-08	3.69846e-07	2.04935e-08	8.36643e-08
54.98	9.0066e-08	3.67693e-07	2.01931e-08	8.24381e-08
55.24	8.95529e-08	3.65598e-07	1.9898e-08	8.12334e-08
55.5	8.90537e-08	3.6356e-07	1.96081e-08	8.00498e-08
55.76	8.85684e-08	3.61579e-07	1.93233e-08	7.88869e-08
56.02	8.80967e-08	3.59653e-07	1.90433e-08	7.77441e-08
56.28	8.76384e-08	3.57782e-07	1.87683e-08	7.66212e-08
56.54	8.71933e-08	3.55965e-07	1.8498e-08	7.55176e-08
56.8	8.67613e-08	3.54201e-07	1.82323e-08	7.44331e-08
57.06	8.63421e-08	3.5249e-07	1.79712e-08	7.33671e-08
57.32	8.59357e-08	3.50831e-07	1.77146e-08	7.23194e-08
57.58	8.55418e-08	3.49223e-07	1.74623e-08	7.12896e-08
57.84	8.51603e-08	3.47665e-07	1.72143e-08	7.02773e-08
58.1	8.47911e-08	3.46158e-07	1.69706e-08	6.92822e-08
58.36	8.44339e-08	3.447e-07	1.6731e-08	6.83039e-08
58.62	8.40888e-08	3.43291e-07	1.64954e-08	6.73421e-08
58.88	8.37555e-08	3.41931e-07	1.62637e-08	6.63964e-08
59.14	8.3434e-08	3.40618e-07	1.6036e-08	6.54667e-08
59.4	8.31241e-08	3.39353e-07	1.58121e-08	6.45525e-08
59.66	8.28257e-08	3.38134e-07	1.55919e-08	6.36535e-08
59.92	8.25387e-08	3.36963e-07	1.53753e-08	6.27695e-08
60.18	8.22631e-08	3.35838e-07	1.51624e-08	6.19002e-08
60.44	8.19987e-08	3.34758e-07	1.4953e-08	6.10453e-08
60.7	8.17455e-08	3.33724e-07	1.4747e-08	6.02046e-08
60.96	8.15033e-08	3.32736e-07	1.45445e-08	5.93776e-08
61.22	8.12721e-08	3.31792e-07	1.43453e-08	5.85643e-08
61.48	8.10519e-08	3.30893e-07	1.41493e-08	5.77643e-08
61.74	8.08426e-08	3.30039e-07	1.39566e-08	5.69774e-08
62	8.06441e-08	3.29228e-07	1.3767e-08	5.62034e-08
62.26	8.04564e-08	3.28462e-07	1.35805e-08	5.5442e-08
62.52	8.02795e-08	3.2774e-07	1.3397e-08	5.46929e-08
62.78	8.01132e-08	3.27061e-07	1.32165e-08	5.3956e-08
63.04	7.99576e-08	3.26426e-07	1.30389e-08	5.32311e-08
63.3	7.98127e-08	3.25834e-07	1.28642e-08	5.25178e-08
63.56	7.96784e-08	3.25286e-07	1.26923e-08	5.18161e-08
63.82	7.95547e-08	3.24781e-07	1.25232e-08	5.11256e-08
64.08	7.94417e-08	3.24319e-07	1.23568e-08	5.04462e-08
64.34	7.93392e-08	3.23901e-07	1.2193e-08	4.97778e-08
64.6	7.92474e-08	3.23526e-07	1.20319e-08	4.912e-08
64.86	7.91662e-08	3.23195e-07	1.18733e-08	4.84727e-08
65.12	7.90956e-08	3.22906e-07	1.17173e-08	4.78357e-08
65.38	7.90357e-08	3.22662e-07	1.15638e-08	4.72088e-08
65.64	7.89865e-08	3.22461e-07	1.14126e-08	4.65919e-08
65.9	7.8948e-08	3.22304e-07	1.12639e-08	4.59848e-08
66.16	7.89203e-08	3.22191e-07	1.11176e-08	4.53873e-08
66.42	7.89034e-08	3.22122e-07	1.09735e-08	4.47992e-08
66.68	7.88973e-08	3.22097e-07	1.08317e-08	4.42204e-08
66.94	7.89022e-08	3.22117e-07	1.06922e-08	4.36507e-08
67.2	7.89181e-08	3.22182e-07	1.05548e-08	4.30899e-08
67.46	7.8945e-08	3.22292e-07	1.04196e-08	4.25379e-08
67.72	7.89832e-08	3.22447e-07	1.02865e-08	4.19946e-08
67.98	7.90325e-08	3.22649e-07	1.01555e-08	4.14597e-08
68.24	7.90932e-08	3.22897e-07	1.00265e-08	4.09332e-08
68.5	7.91653e-08	3.23191e-07	9.89958e-09	4.04149e-08
68.76	7.92489e-08	3.23532e-07	9.77459e-09	3.99046e-08
69.02	7.93443e-08	3.23922e-07	9.65154e-09	3.94022e-08
69.28	7.94514e-08	3.24359e-07	9.5304e-09	3.89077e-08
69.54	7.95704e-08	3.24845e-07	9.41113e-09	3.84208e-08
69.8	7.97016e-08	3.2538e-07	9.2937e-09	3.79414e-08
70.06	7.98449e-08	3.25966e-07	9.17809e-09	3.74694e-08
70.32	8.00007e-08	3.26601e-07	9.06425e-09	3.70046e-08
70.58	8.0169e-08	3.27288e-07	8.95216e-09	3.65471e-08
70.84	8.035e-08	3.28028e-07	8.8418e-09	3.60965e-08
71.1	8.0544e-08	3.2882e-07	8.73312e-09	3.56528e-08
71.36	8.07511e-08	3.29665e-07	8.62611e-09	3.52159e-08
71.62	8.09716e-08	3.30565e-07	8.52073e-09	3.47857e-08
71.88	8.12057e-08	3.31521e-07	8.41695e-09	3.43621e-08
72.14	8.14535e-08	3.32533e-07	8.31476e-09	3.39449e-08
72.4	8.17154e-08	3.33602e-07	8.21412e-09	3.3534e-08
72.66	8.19917e-08	3.3473e-07	8.11501e-09	3.31294e-08
72.92	8.22825e-08	3.35917e-07	8.01741e-09	3.27309e-08
73.18	8.25882e-08	3.37165e-07	7.92128e-09	3.23385e-08
73.44	8.29091e-08	3.38475e-07	7.8266e-09	3.1952e-08
73.7	8.32456e-08	3.39849e-07	7.73335e-09	3.15713e-08
73.96	8.35978e-08	3.41287e-07	7.6415e-09	3.11963e-08
74.22	8.39662e-08	3.42791e-07	7.55104e-09	3.0827e-08
74.48	8.43512e-08	3.44362e-07	7.46194e-09	3.04632e-08
74.74	8.47531e-08	3.46003e-07	7.37417e-09	3.01049e-08
75	8.51724e-08	3.47715e-07	7.28772e-09	2.9752e-08
75.26	8.56094e-08	3.49499e-07	7.20256e-09	2.94043e-08
75.52	8.60646e-08	3.51357e-07	7.11868e-09	2.90619e-08
75.78	8.65385e-08	3.53292e-07	7.03604e-09	2.87245e-08
76.04	8.70315e-08	3.55305e-07	6.95464e-09	2.83922e-08
76.3	8.75442e-08	3.57398e-07	6.87444e-09	2.80648e-08
76.56	8.8077e-08	3.59573e-07	6.79544e-09	2.77423e-08
76.82	8.86307e-08	3.61833e-07	6.71761e-09	2.74245e-08
77.08	8.92056e-08	3.6418e-07	6.64093e-09	2.71115e-08
77.34	8.98025e-08	3.66617e-07	6.56538e-09	2.68031e-08
77.6	9.0422e-08	3.69146e-07	6.49095e-09	2.64992e-08
77.86	9.10647e-08	3.7177e-07	6.41762e-09	2.61998e-08
78.12	9.17314e-08	3.74492e-07	6.34537e-09	2.59049e-08
78.38	9.24229e-08	3.77315e-07	6.27418e-09	2.56142e-08
78.64	9.31398e-08	3.80242e-07	6.20404e-09	2.53279e-08
78.9	9.38831e-08	3.83276e-07	6.13492e-09	2.50457e-08
79.16	9.46535e-08	3.86421e-07	6.06682e-09	2.47677e-08
79.42	9.5452e-08	3.89681e-07	5.99971e-09	2.44937e-08
79.68	9.62796e-08	3.9306e-07	5.93358e-09	2.42237e-08
79.94	9.71372e-08	3.96561e-07	5.86842e-09	2.39577e-08
80.2	9.80258e-08	4.00189e-07	5.8042e-09	2.36956e-08
80.46	9.89467e-08	4.03948e-07	5.74092e-09	2.34372e-08
80.72	9.99009e-08	4.07844e-07	5.67856e-09	2.31826e-08
80.98	1.0089e-07	4.1188e-07	5.6171e-09	2.29317e-08
81.24	1.01914e-07	4.16063e-07	5.55654e-09	2.26845e-08
81.5	1.02976e-07	4.20398e-07	5.49684e-09	2.24408e-08
81.76	1.04077e-07	4.24891e-07	5.43802e-09	2.22006e-08
82.02	1.05217e-07	4.29548e-07	5.38004e-09	2.19639e-08
82.28	1.064e-07	4.34376e-07	5.32289e-09	2.17306e-08
82.54	1.07626e-07	4.3938e-07	5.26657e-09	2.15007e-08
82.8	1.08897e-07	4.4457e-07	5.21106e-09	2.1274e-08
83.06	1.10215e-07	4.49951e-07	5.15634e-09	2.10507e-08
83.32	1.11582e-07	4.55533e-07	5.10241e-09	2.08305e-08
83.58	1.13001e-07	4.61325e-07	5.04925e-09	2.06135e-08
83.84	1.14473e-07	4.67334e-07	4.99685e-09	2.03995e-08
84.1	1.16001e-07	4.73571e-07	4.9452e-09	2.01887e-08
84.36	1.17587e-07	4.80046e-07	4.89428e-09	1.99808e-08
84.62	1.19234e-07	4.8677e-07	4.84409e-09	1.97759e-08
84.88	1.20944e-07	4.93754e-07	4.79462e-09	1.95739e-08
85.14	1.22722e-07	5.01011e-07	4.74584e-09	1.93748e-08
85.4	1.2457e-07	5.08553e-07	4.69776e-09	1.91785e-08
85.66	1.2649e-07	5.16395e-07	4.65036e-09	1.8985e-08
85.92	1.28488e-07	5.24551e-07	4.60363e-09	1.87943e-08
86.18	1.30567e-07	5.33037e-07	4.55757e-09	1.86062e-08
86.44	1.3273e-07	5.41869e-07	4.51215e-09	1.84208e-08
86.7	1.34983e-07	5.51066e-07	4.46738e-09	1.8238e-08
86.96	1.3733e-07	5.60647e-07	4.42323e-09	1.80578e-08
87.22	1.39776e-07	5.70631e-07	4.37971e-09	1.78801e-08
87.48	1.42326e-07	5.81042e-07	4.3368e-09	1.77049e-08
87.74	1.44986e-07	5.91902e-07	4.29449e-09	1.75322e-08
88	1.47762e-07	6.03236e-07	4.25278e-09	1.73619e-08
88.26	1.50661e-07	6.15072e-07	4.21165e-09	1.7194e-08
88.52	1.5369e-07	6.27438e-07	4.17109e-09	1.70284e-08
88.78	1.56857e-07	6.40365e-07	4.13111e-09	1.68652e-08
89.04	1.60169e-07	6.53888e-07	4.09168e-09	1.67042e-08
89.3	1.63636e-07	6.68043e-07	4.0528e-09	1.65455e-08
89.56	1.67268e-07	6.82867e-07	4.01447e-09	1.6389e-08
89.82	1.71074e-07	6.98405e-07	3.97667e-09	1.62347e-08
90.08	1.75065e-07	7.14701e-07	3.9394e-09	1.60825e-08
90.34	1.79255e-07	7.31805e-07	3.90264e-09	1.59325e-08
90.6	1.83656e-07	7.49771e-07	3.8664e-09	1.57845e-08
90.86	1.88282e-07	7.68657e-07	3.83066e-09	1.56386e-08
91.12	1.93149e-07	7.88527e-07	3.79541e-09	1.54947e-08
91.38	1.98274e-07	8.09449e-07	3.76066e-09	1.53528e-08
91.64	2.03675e-07	8.31501e-07	3.72639e-09	1.52129e-08
91.9	2.09374e-07	8.54764e-07	3.69259e-09	1.50749e-08
92.16	2.15391e-07	8.7933e-07	3.65926e-09	1.49389e-08
92.42	2.21751e-07	9.05296e-07	3.62639e-09	1.48047e-08
92.68	2.28482e-07	9.32774e-07	3.59397e-09	1.46723e-08
92.94	2.35612e-07	9.61882e-07	3.56201e-09	1.45418e-08
93.2	2.43174e-07	9.92754e-07	3.53048e-09	1.44131e-08
93.46	2.51204e-07	1.02554e-06	3.49939e-09	1.42862e-08
93.72	2.59742e-07	1.06039e-06	3.46873e-09	1.4161e-08
93.98	2.68832e-07	1.0975e-06	3.43849e-09	1.40376e-08
94.24	2.78523e-07	1.13706e-06	3.40867e-09	1.39158e-08
94.5	2.8887e-07	1.17931e-06	3.37926e-09	1.37958e-08
94.76	2.99934e-07	1.22448e-06	3.35026e-09	1.36774e-08
95.02	3.11785e-07	1.27286e-06	3.32165e-09	1.35606e-08
95.28	3.245e-07	1.32477e-06	3.29344e-09	1.34454e-08
95.54	3.38166e-07	1.38056e-06	3.26562e-09	1.33318e-08
95.8	3.52882e-07	1.44064e-06	3.23818e-09	1.32198e-08
96.06	3.6876e-07	1.50546e-06	3.21112e-09	1.31093e-08
96.32	3.85929e-07	1.57555e-06	3.18443e-09	1.30004e-08
96.58	4.04533e-07	1.6515e-06	3.15811e-09	1.28929e-08
96.84	4.24741e-07	1.734e-06	3.13215e-09	1.2787e-08
97.1	4.46745e-07	1.82383e-06	3.10656e-09	1.26825e-08
97.36	4.70769e-07	1.92191e-06	3.08131e-09	1.25794e-08
97.62	4.97072e-07	2.02929e-06	3.05641e-09	1.24777e-08
97.88	5.25957e-07	2.14721e-06	3.03186e-09	1.23775e-08
98.14	5.5778e-07	2.27713e-06	3.00764e-09	1.22786e-08
98.4	5.92958e-07	2.42074e-06	2.98376e-09	1.21811e-08
98.66	6.31992e-07	2.58009e-06	2.96021e-09	1.2085e-08
98.92	6.75473e-07	2.75761e-06	2.93698e-09	1.19902e-08
99.18	7.24117e-07	2.9562e-06	2.91408e-09	1.18967e-08
99.44	7.78789e-07	3.17939e-06	2.89149e-09	1.18045e-08
99.7	8.40544e-07	3.43151e-06	2.86922e-09	1.17135e-08
99.96	9.10682e-07	3.71784e-06	2.84725e-09	1.16239e-08
100.22	9.90815e-07	4.04498e-06	2.8256e-09	1.15354e-08
100.48	1.08297e-06	4.4212e-06	2.80424e-09	1.14483e-08
100.74	1.18971e-06	4.85697e-06	2.78318e-09	1.13623e-08
101	1.31434e-06	5.36576e-06	2.76241e-09	1.12775e-08
101.26	1.46114e-06	5.96509e-06	2.74194e-09	1.11939e-08
101.52	1.63579e-06	6.67809e-06	2.72175e-09	1.11115e-08
101.78	1.8459e-06	7.53586e-06	2.70185e-09	1.10302e-08
102.04	2.10189e-06	8.58094e-06	2.68222e-09	1.09501e-08
102.3	2.41835e-06	9.87286e-06	2.66287e-09	1.08711e-08
102.56	2.81617e-06	1.14969e-05	2.6438e-09	1.07933e-08
102.82	3.32618e-06	1.35791e-05	2.62499e-09	1.07165e-08
103.08	3.99541e-06	1.63112e-05	2.60645e-09	1.06408e-08
103.34	4.89851e-06	1.99981e-05	2.58818e-09	1.05662e-08
103.6	6.15984e-06	2.51475e-05	2.57016e-09	1.04926e-08
103.86	7.99938e-06	3.26573e-05	2.55241e-09	1.04202e-08
104.12	1.08368e-05	4.4241e-05	2.5349e-09	1.03487e-08
104.38	1.55571e-05	6.35116e-05	2.51765e-09	1.02783e-08
104.64	2.43032e-05	9.92174e-05	2.50065e-09	1.02089e-08
104.9	4.34472e-05	0.000177373	2.4839e-09	1.01405e-08
105.16	9.97472e-05	0.000407216	2.46738e-09	1.00731e-08
105.42	0.000432396	0.00176525	2.45111e-09	1.00066e-08
105.68	inf	inf	2.43508e-09	9.94118e-09
105.94	inf	inf	2.41929e-09	9.87669e-09
106.2	inf	inf	2.40372e-09	9.81316e-09
106.46	inf	inf	2.38839e-09	9.75057e-09
106.72	inf	inf	2.37329e-09	9.68891e-09
106.98	inf	inf	2.35841e-09	9.62818e-09
107.24	inf	inf	2.34376e-09	9.56837e-09
